
Evaluation for Lead II:
RMSE: 0.0280
R^2: 0.9571
Pearson Correlation: 0.9784
SSIM: 0.7888
Cosine Similarity: 0.9634
RMSE per point (length 128):
0.026411, 0.025302, 0.024200, 0.023670, 0.022716, 0.021860, 0.021685, 0.020644, 0.020071, 0.019703, 0.019836, 0.018828, 0.018878, 0.017572, 0.017359, 0.016748, 0.016082, 0.015526, 0.014825, 0.014126, 0.013784, 0.013767, 0.012963, 0.012679, 0.012455, 0.012137, 0.011687, 0.011377, 0.011290, 0.010993, 0.010524, 0.010316, 0.010139, 0.010070, 0.009778, 0.009689, 0.009703, 0.009427, 0.009592, 0.009706, 0.009682, 0.009597, 0.009621, 0.009790, 0.010354, 0.010598, 0.011158, 0.011861, 0.012818, 0.013988, 0.015107, 0.016194, 0.017051, 0.017570, 0.017768, 0.017574, 0.016912, 0.016467, 0.016615, 0.016646, 0.016222, 0.016641, 0.017381, 0.019687, 0.027035, 0.037307, 0.055647, 0.094403, 0.129149, 0.133945, 0.116007, 0.084444, 0.056830, 0.033591, 0.021560, 0.016502, 0.015007, 0.015437, 0.016052, 0.015954, 0.015146, 0.013582, 0.011875, 0.010686, 0.010037, 0.010069, 0.010657, 0.011660, 0.012852, 0.014337, 0.016132, 0.017407, 0.018256, 0.018810, 0.018904, 0.018212, 0.017296, 0.016138, 0.014810, 0.013519, 0.012424, 0.011832, 0.011529, 0.011575, 0.011425, 0.011640, 0.012082, 0.011741, 0.011370, 0.011573, 0.011598, 0.011724, 0.011793, 0.011743, 0.011721, 0.012002, 0.012075, 0.012009, 0.012677, 0.012696, 0.013022, 0.013634, 0.014640, 0.015390, 0.016670, 0.016726, 0.017450, 0.017905

Evaluation for Lead III:
RMSE: 0.0285
R^2: 0.9438
Pearson Correlation: 0.9715
SSIM: 0.6582
Cosine Similarity: 0.9179
RMSE per point (length 128):
0.026500, 0.025839, 0.025078, 0.025185, 0.025530, 0.023433, 0.022702, 0.021887, 0.021200, 0.020629, 0.020539, 0.019596, 0.019313, 0.019183, 0.018705, 0.017896, 0.017212, 0.016257, 0.015233, 0.014589, 0.014325, 0.014012, 0.013365, 0.013165, 0.012951, 0.012535, 0.012058, 0.011969, 0.011211, 0.010823, 0.010650, 0.010519, 0.010395, 0.010328, 0.010106, 0.010126, 0.009979, 0.009823, 0.009719, 0.009801, 0.010074, 0.010013, 0.010078, 0.010132, 0.010776, 0.010939, 0.011295, 0.012065, 0.012856, 0.013889, 0.015069, 0.015985, 0.016891, 0.017657, 0.017781, 0.017173, 0.016601, 0.015910, 0.015282, 0.015172, 0.014870, 0.015439, 0.016325, 0.019004, 0.026791, 0.038437, 0.060042, 0.101072, 0.131912, 0.135733, 0.113596, 0.083670, 0.055327, 0.032920, 0.021966, 0.017102, 0.015601, 0.015785, 0.015724, 0.016040, 0.015492, 0.014333, 0.012794, 0.012187, 0.011859, 0.011635, 0.011982, 0.012791, 0.014125, 0.015496, 0.017010, 0.018255, 0.019211, 0.019722, 0.019596, 0.018443, 0.017634, 0.016692, 0.015433, 0.013898, 0.013069, 0.012710, 0.012163, 0.012090, 0.012003, 0.011923, 0.011953, 0.012099, 0.011717, 0.011662, 0.011812, 0.012087, 0.012172, 0.011960, 0.012111, 0.012347, 0.012379, 0.012200, 0.012450, 0.012739, 0.013281, 0.013888, 0.014638, 0.015678, 0.016932, 0.017303, 0.017845, 0.018124

Evaluation for Lead aVL:
RMSE: 0.0154
R^2: 0.9758
Pearson Correlation: 0.9878
SSIM: 0.8127
Cosine Similarity: 0.9681
RMSE per point (length 128):
0.015184, 0.015219, 0.014766, 0.014396, 0.013927, 0.013245, 0.013215, 0.012208, 0.011865, 0.011701, 0.011479, 0.011508, 0.011239, 0.011387, 0.011014, 0.010228, 0.010015, 0.009427, 0.009059, 0.008572, 0.008522, 0.008208, 0.008117, 0.007693, 0.007395, 0.007104, 0.006904, 0.006792, 0.006465, 0.006324, 0.006168, 0.006119, 0.006026, 0.005916, 0.005959, 0.005723, 0.005749, 0.005662, 0.005715, 0.005663, 0.005623, 0.005693, 0.005766, 0.005903, 0.006120, 0.006185, 0.006383, 0.006728, 0.007098, 0.007793, 0.008333, 0.008816, 0.009150, 0.009536, 0.009806, 0.009772, 0.009299, 0.009085, 0.008902, 0.008798, 0.008721, 0.009059, 0.009513, 0.010948, 0.014864, 0.020582, 0.030950, 0.052299, 0.069439, 0.071135, 0.060331, 0.043316, 0.030302, 0.017663, 0.012241, 0.010004, 0.009193, 0.009120, 0.009254, 0.009370, 0.009137, 0.008370, 0.007566, 0.007094, 0.006916, 0.007281, 0.007288, 0.008038, 0.008770, 0.009248, 0.010019, 0.010640, 0.011235, 0.011275, 0.010849, 0.010359, 0.010137, 0.009486, 0.008845, 0.008120, 0.007614, 0.007420, 0.007178, 0.006980, 0.006932, 0.006958, 0.007049, 0.006851, 0.006734, 0.006884, 0.006987, 0.007032, 0.006952, 0.006995, 0.006944, 0.006961, 0.006878, 0.007075, 0.007417, 0.007299, 0.007702, 0.007903, 0.008709, 0.009022, 0.009520, 0.010032, 0.010002, 0.010136

Evaluation for Lead aVR:
RMSE: 0.0143
R^2: 0.9815
Pearson Correlation: 0.9907
SSIM: 0.9001
Cosine Similarity: 0.9893
RMSE per point (length 128):
0.014203, 0.013532, 0.013093, 0.013079, 0.012782, 0.012594, 0.011910, 0.011412, 0.011037, 0.010841, 0.010749, 0.010364, 0.010230, 0.010109, 0.009808, 0.009365, 0.009255, 0.009071, 0.008663, 0.008133, 0.007883, 0.007933, 0.007578, 0.007409, 0.007169, 0.007024, 0.006742, 0.006652, 0.006617, 0.006343, 0.006180, 0.006058, 0.005986, 0.006038, 0.005726, 0.005618, 0.005705, 0.005673, 0.005637, 0.005693, 0.005638, 0.005454, 0.005512, 0.005687, 0.005721, 0.005892, 0.006215, 0.006802, 0.007310, 0.007966, 0.008400, 0.008964, 0.009334, 0.009799, 0.009866, 0.009903, 0.009871, 0.009578, 0.009558, 0.009611, 0.009619, 0.009941, 0.010252, 0.011010, 0.014359, 0.019844, 0.028448, 0.046504, 0.062723, 0.066294, 0.056025, 0.040908, 0.027804, 0.016858, 0.011354, 0.009184, 0.008788, 0.008591, 0.008727, 0.009019, 0.008556, 0.007825, 0.006953, 0.006267, 0.005945, 0.006065, 0.006272, 0.006897, 0.007599, 0.008436, 0.009456, 0.010167, 0.010599, 0.010738, 0.010569, 0.010204, 0.009611, 0.009077, 0.008545, 0.008131, 0.007509, 0.007138, 0.006888, 0.006810, 0.006760, 0.006678, 0.006923, 0.006824, 0.006684, 0.006839, 0.006621, 0.006680, 0.006810, 0.006599, 0.006648, 0.006740, 0.006804, 0.006675, 0.007070, 0.007099, 0.007455, 0.007750, 0.008054, 0.008686, 0.009041, 0.009480, 0.009619, 0.009974

Evaluation for Lead aVF:
RMSE: 0.0281
R^2: 0.9390
Pearson Correlation: 0.9692
SSIM: 0.6757
Cosine Similarity: 0.9185
RMSE per point (length 128):
0.025480, 0.024707, 0.023726, 0.024218, 0.023126, 0.022411, 0.022275, 0.021200, 0.019831, 0.019434, 0.019341, 0.018849, 0.018608, 0.018367, 0.017580, 0.016852, 0.016314, 0.015521, 0.014584, 0.014108, 0.013447, 0.013226, 0.012884, 0.012386, 0.012046, 0.011863, 0.011613, 0.011158, 0.010740, 0.010540, 0.010276, 0.010113, 0.009890, 0.009752, 0.009509, 0.009416, 0.009324, 0.009258, 0.009488, 0.009214, 0.009479, 0.009570, 0.009566, 0.009700, 0.010195, 0.010518, 0.011058, 0.011674, 0.012319, 0.013433, 0.014663, 0.015962, 0.016798, 0.017339, 0.017335, 0.016776, 0.016087, 0.015839, 0.015727, 0.015488, 0.015132, 0.015449, 0.016254, 0.018777, 0.026281, 0.037595, 0.056630, 0.098301, 0.131949, 0.135243, 0.114431, 0.083394, 0.055404, 0.032191, 0.021431, 0.016220, 0.014672, 0.014728, 0.014875, 0.015160, 0.015021, 0.013602, 0.011725, 0.010726, 0.010197, 0.010136, 0.010659, 0.011570, 0.012680, 0.014448, 0.015889, 0.017028, 0.018147, 0.018709, 0.018678, 0.018027, 0.017065, 0.015772, 0.014439, 0.013175, 0.012174, 0.011614, 0.011352, 0.011214, 0.011180, 0.011378, 0.011542, 0.011399, 0.011103, 0.011297, 0.011278, 0.011563, 0.011665, 0.011701, 0.012008, 0.011925, 0.012080, 0.011789, 0.012154, 0.012508, 0.012910, 0.013489, 0.014251, 0.015310, 0.016089, 0.016595, 0.017150, 0.017983

Evaluation for Lead V1:
RMSE: 0.0261
R^2: 0.9716
Pearson Correlation: 0.9857
SSIM: 0.7935
Cosine Similarity: 0.9798
RMSE per point (length 128):
0.024604, 0.022439, 0.022311, 0.022580, 0.023256, 0.021813, 0.022175, 0.020304, 0.018895, 0.017927, 0.018262, 0.018369, 0.018009, 0.017759, 0.017603, 0.017076, 0.016739, 0.015632, 0.014357, 0.014122, 0.013673, 0.012822, 0.012341, 0.012014, 0.012207, 0.011605, 0.011421, 0.011033, 0.010949, 0.010473, 0.010065, 0.009759, 0.009172, 0.009392, 0.009096, 0.008784, 0.008984, 0.008951, 0.009204, 0.009014, 0.008881, 0.009123, 0.009015, 0.008923, 0.009072, 0.009468, 0.009669, 0.010588, 0.011805, 0.012981, 0.013647, 0.013513, 0.013756, 0.014301, 0.014285, 0.014097, 0.013566, 0.012667, 0.011960, 0.011114, 0.011075, 0.011669, 0.012926, 0.015445, 0.021477, 0.031405, 0.047853, 0.086551, 0.121468, 0.128690, 0.110045, 0.076683, 0.048200, 0.029110, 0.019606, 0.016187, 0.015368, 0.014985, 0.015640, 0.015466, 0.014671, 0.013851, 0.012799, 0.012055, 0.011342, 0.011346, 0.012201, 0.013485, 0.015140, 0.016576, 0.017815, 0.019098, 0.019651, 0.019445, 0.018914, 0.017694, 0.016144, 0.014555, 0.013211, 0.012018, 0.011304, 0.010929, 0.010632, 0.010520, 0.010534, 0.010622, 0.010573, 0.010364, 0.010120, 0.010170, 0.010088, 0.010126, 0.009935, 0.010007, 0.009707, 0.010084, 0.010272, 0.010776, 0.011068, 0.010814, 0.011610, 0.011651, 0.012927, 0.013601, 0.013869, 0.014076, 0.014858, 0.015765

Evaluation for Lead V3:
RMSE: 0.0532
R^2: 0.9784
Pearson Correlation: 0.9895
SSIM: 0.8738
Cosine Similarity: 0.9657
RMSE per point (length 128):
0.040394, 0.037709, 0.036816, 0.036315, 0.035153, 0.034802, 0.034195, 0.031750, 0.029828, 0.029000, 0.029336, 0.028903, 0.028386, 0.027939, 0.025788, 0.025800, 0.025531, 0.024120, 0.022926, 0.022812, 0.021389, 0.020479, 0.019633, 0.018093, 0.017080, 0.015636, 0.014978, 0.014266, 0.013816, 0.013191, 0.012818, 0.012240, 0.011619, 0.011071, 0.011113, 0.011225, 0.011758, 0.012033, 0.012103, 0.011244, 0.010734, 0.010123, 0.009729, 0.009618, 0.009283, 0.009873, 0.010316, 0.010345, 0.010809, 0.010907, 0.011784, 0.011793, 0.012046, 0.012233, 0.012523, 0.012657, 0.012595, 0.012318, 0.012501, 0.012526, 0.013188, 0.013490, 0.014726, 0.018084, 0.027413, 0.047889, 0.088116, 0.217595, 0.313167, 0.296772, 0.216208, 0.132219, 0.069943, 0.036875, 0.026437, 0.023083, 0.022990, 0.022982, 0.025571, 0.025570, 0.024332, 0.020419, 0.016189, 0.014994, 0.014965, 0.015473, 0.017484, 0.020024, 0.022160, 0.024917, 0.027445, 0.029274, 0.029663, 0.029656, 0.028291, 0.026679, 0.024535, 0.021729, 0.019416, 0.017011, 0.015294, 0.014418, 0.013908, 0.013686, 0.013486, 0.013965, 0.014027, 0.013630, 0.013654, 0.014105, 0.012994, 0.013734, 0.014714, 0.015439, 0.014073, 0.012461, 0.012490, 0.013023, 0.012652, 0.012535, 0.013681, 0.014871, 0.015989, 0.017477, 0.021184, 0.021664, 0.023241, 0.021500

Evaluation for Lead V4:
RMSE: 0.0513
R^2: 0.9761
Pearson Correlation: 0.9884
SSIM: 0.8774
Cosine Similarity: 0.9713
RMSE per point (length 128):
0.038874, 0.037768, 0.037029, 0.035876, 0.035233, 0.033782, 0.032497, 0.032186, 0.030062, 0.029530, 0.030626, 0.030669, 0.030506, 0.027737, 0.026015, 0.025350, 0.024148, 0.022772, 0.021442, 0.020585, 0.019657, 0.018667, 0.017556, 0.017650, 0.017024, 0.017049, 0.016237, 0.015427, 0.014608, 0.013519, 0.012648, 0.011971, 0.011687, 0.011226, 0.010559, 0.010300, 0.010105, 0.009959, 0.010592, 0.010173, 0.009689, 0.009447, 0.009310, 0.008952, 0.009236, 0.009675, 0.009593, 0.009666, 0.009919, 0.010325, 0.010735, 0.011048, 0.011348, 0.011490, 0.012070, 0.012054, 0.012059, 0.012341, 0.012306, 0.012699, 0.012703, 0.013293, 0.014723, 0.017794, 0.026908, 0.049147, 0.088836, 0.184872, 0.274504, 0.290932, 0.234027, 0.150466, 0.080150, 0.039138, 0.026057, 0.021197, 0.020505, 0.021762, 0.022419, 0.023334, 0.022323, 0.020448, 0.016241, 0.014376, 0.013594, 0.014101, 0.016188, 0.018410, 0.021183, 0.024054, 0.026809, 0.028290, 0.029168, 0.029635, 0.029317, 0.027356, 0.025101, 0.022888, 0.020259, 0.017942, 0.016190, 0.014980, 0.014742, 0.014226, 0.013827, 0.013953, 0.013800, 0.013308, 0.013226, 0.014852, 0.015473, 0.016943, 0.014958, 0.014429, 0.015520, 0.014916, 0.015741, 0.016394, 0.014105, 0.014327, 0.014722, 0.015610, 0.016880, 0.018954, 0.019362, 0.020774, 0.026691, 0.027289

Evaluation for Lead V5:
RMSE: 0.0247
R^2: 0.9875
Pearson Correlation: 0.9938
SSIM: 0.9103
Cosine Similarity: 0.9922
RMSE per point (length 128):
0.022560, 0.022465, 0.020874, 0.020836, 0.020893, 0.020937, 0.020429, 0.018959, 0.019205, 0.018499, 0.017924, 0.017391, 0.016551, 0.016959, 0.016234, 0.016268, 0.015294, 0.014890, 0.014483, 0.013569, 0.013474, 0.013466, 0.013030, 0.012792, 0.012546, 0.011744, 0.011505, 0.010976, 0.010097, 0.009704, 0.009430, 0.008956, 0.008793, 0.008994, 0.008573, 0.008573, 0.008417, 0.007852, 0.007970, 0.008233, 0.007734, 0.007519, 0.007696, 0.007631, 0.007880, 0.007887, 0.008019, 0.008289, 0.008406, 0.008822, 0.009037, 0.009829, 0.009984, 0.009835, 0.010154, 0.010393, 0.010424, 0.010539, 0.010700, 0.010993, 0.011075, 0.011217, 0.011634, 0.013666, 0.017924, 0.027464, 0.046925, 0.086494, 0.122219, 0.126216, 0.099979, 0.066671, 0.040483, 0.024972, 0.018040, 0.015841, 0.015110, 0.014697, 0.015633, 0.015645, 0.013994, 0.012604, 0.011617, 0.010341, 0.009688, 0.009338, 0.010284, 0.011015, 0.012103, 0.013573, 0.014916, 0.015865, 0.016557, 0.017083, 0.017212, 0.016681, 0.015990, 0.014576, 0.013182, 0.012113, 0.011190, 0.010521, 0.010218, 0.010222, 0.010532, 0.010213, 0.010133, 0.010125, 0.010140, 0.010158, 0.009921, 0.010139, 0.009900, 0.009911, 0.009476, 0.009815, 0.010192, 0.010681, 0.009829, 0.011015, 0.010664, 0.011156, 0.011418, 0.011632, 0.012356, 0.012426, 0.013875, 0.014630
